sample1,,sample2,,sample1redo,,
Wavelength (nm),Abs,Wavelength (nm),Abs,Wavelength (nm),Abs,
800,0.0004363459302,800,-0.0006317274529,800,0.003489013296,
799,0.0005641108146,799,-0.000511722872,799,0.003758107778,
798,0.0005816328339,798,-0.0006401539431,798,0.003487056354,
797,0.0003913650289,797,-0.0006223185337,797,0.003707586089,
796,0.000408620981,796,-0.0005108437617,796,0.003697430016,
795,0.0004469699634,795,-0.0006769596948,795,0.003616609378,
794,0.0004353612603,794,-0.0005890238681,794,0.003623944242,
793,0.0004864366783,793,-0.0005561920116,793,0.003664510092,
792,0.0005441791145,792,-0.0005725824158,792,0.003837544471,
791,0.000442461198,791,-0.0005482809502,791,0.003598808078,
790,0.0006588832475,790,-0.0004587676085,790,0.003860291792,
789,0.0005746861571,789,-0.0005101198331,789,0.003745757509,
788,0.0005399025977,788,-0.0005264602369,788,0.003849401139,
787,0.0006947912625,787,-0.000466007943,787,0.003918353934,
786,0.00050273753,786,-0.0004688006302,786,0.003803856438,
785,0.0004685557215,785,-0.0005352506996,785,0.003769753268,
784,0.0004560135712,784,-0.000628418813,784,0.003800069913,
783,0.0003980237816,783,-0.0004941924708,783,0.003822371596,
782,0.000614786637,782,-0.0003813399235,782,0.003970781341,
781,0.0004295052204,781,-0.0004689557827,781,0.003991941921,
780,0.0005122228758,780,-0.0003578037431,780,0.003911118489,
779,0.000549544231,779,-0.0004228743201,779,0.004014017992,
778,0.0004572055768,778,-0.0005004497361,778,0.003868675558,
777,0.0005380883231,777,-0.0004079265345,777,0.003980525304,
776,0.0005425203126,776,-0.0005204101908,776,0.004047173541,
775,0.0004656274687,775,-0.0005114643136,775,0.003796884092,
774,0.0004255666572,774,-0.0004252535,774,0.004006545991,
773,0.0005232375115,773,-0.0003585796803,773,0.004035677295,
772,0.0006109241513,772,-0.0003240749356,772,0.004093031399,
771,0.0004525153199,771,-0.0005278046592,771,0.003990269732,
770,0.000498772366,770,-0.0003616316826,770,0.004018877633,
769,0.0005771226715,769,-0.0003348353202,769,0.004151359666,
768,0.0004682965809,768,-0.0004266499891,768,0.004075157922,
767,0.0004595377832,767,-0.0004468724655,767,0.004097342957,
766,0.0004880434135,766,-0.0004581469984,766,0.004086289555,
765,0.0005383215612,765,-0.0003291964822,765,0.004126428161,
764,0.0004690999049,764,-0.0004871594429,764,0.004114485346,
763,0.0004611444019,763,-0.0004921756918,763,0.004039884079,
762,0.0004163682461,762,-0.0004727827618,762,0.004151908681,
761,0.0005287319655,761,-0.0003626662656,761,0.00422252994,
760,0.0004915678874,760,-0.0003866677289,760,0.004232227802,
759,0.0004847263044,759,-0.0005175144761,759,0.004102386534,
758,0.0003917277791,758,-0.0004334771074,758,0.004197960254,
757,0.0005458897213,757,-0.0003516996221,757,0.004184499849,
756,0.0005442827824,756,-0.0003305415448,756,0.004306208808,
755,0.0003887482162,755,-0.0003522686602,755,0.004341085907,
754,0.0005233930424,754,-0.0002631805255,754,0.004294365644,
753,0.0004352317192,753,-0.0003783915017,753,0.004340458661,
752,0.0004851668491,752,-0.000370115129,752,0.004333059303,
751,0.0004304121248,751,-0.0003626145481,751,0.004254237749,
750,0.0005059511168,750,-0.0002598691208,750,0.004368540365,
749,0.0005185983609,749,-0.0002465197467,749,0.004399892408,
748,0.0005227710353,748,-0.0003465265909,748,0.004299568478,
747,0.0004501572403,747,-0.0004029610718,747,0.004392309114,
746,0.0004757080169,746,-0.000302605069,746,0.004397120792,
745,0.0004730647779,745,-0.0002921025443,745,0.004500449169,
744,0.0005009234301,744,-0.0002525736054,744,0.004480283707,
743,0.0005851321621,743,-0.0002466749866,743,0.004527887329,
742,0.000613983022,742,-0.0002010874159,742,0.004541410599,
741,0.0005717572058,741,-0.0002433117043,741,0.004566366319,
740,0.0004929154529,740,-0.0002294961159,740,0.004518052097,
739,0.0005109529593,739,-0.0002212686522,739,0.00454434054,
738,0.0004826012882,738,-0.000258834305,738,0.004620363005,
737,0.0005413021427,737,-0.0002587825584,737,0.004482323769,
736,0.0005365591496,736,-0.0001780072052,736,0.004601604771,
735,0.0005423388793,735,-0.0002522631548,735,0.004666647408,
734,0.0005734938313,734,-0.000234877516,734,0.004629886243,
733,0.0003729957389,733,-0.0002849627635,733,0.004518967588,
732,0.0005249221576,732,-0.0003372149949,732,0.004632581491,
731,0.0004796211142,731,-0.0003294034104,731,0.004599145614,
730,0.0005042924895,730,-0.0003071060637,730,0.004566052463,
729,0.0003984383366,729,-0.0003122795606,729,0.004576123785,
728,0.0004505459219,728,-0.0003531998082,728,0.004609898198,
727,0.0004310858203,727,-0.0003613213194,727,0.004614450503,
726,0.0004118079669,726,-0.0003581141063,726,0.004635145422,
725,0.0004133366747,725,-0.0004064265522,725,0.004614319652,
724,0.0004432126589,724,-0.0003952023981,724,0.004664266482,
723,0.0004914901219,723,-0.0004923308152,723,0.004623319488,
722,0.0004551843449,722,-0.0004173400812,722,0.004682713654,
721,0.0004248670593,721,-0.0003378874972,721,0.004675988574,
720,0.0004793619446,720,-0.0004023403744,720,0.004755855538,
719,0.0003930750536,719,-0.0005244435742,719,0.004635354504,
718,0.000406781357,718,-0.000489589991,718,0.004654349759,
717,0.0004371232935,717,-0.0003968575911,717,0.004769150633,
716,0.0004032057477,716,-0.0004259258858,716,0.004665731918,
715,0.0004385484499,715,-0.0003882712335,715,0.004744157195,
714,0.0003888259234,714,-0.0004630601034,714,0.004723587539,
713,0.0003383578442,713,-0.0004646115995,713,0.004729057197,
712,0.0004409323737,712,-0.0004413902352,712,0.004741330631,
711,0.0003672182502,711,-0.0004051851865,711,0.0048358934,
710,0.000424789323,710,-0.0004189434694,710,0.004831286613,
709,0.0003730993776,709,-0.0004302187299,709,0.0048015262,
708,0.0004772110551,708,-0.0004478550982,708,0.004856939428,
707,0.0004094241885,707,-0.0004421143094,707,0.004815555643,
706,0.0003147320822,706,-0.000520306814,706,0.004773285706,
705,0.0004173528578,705,-0.0004995706258,705,0.004847567994,
704,0.0004025580129,704,-0.0005352506996,704,0.004851808771,
703,0.0003860018332,703,-0.0005004497361,703,0.00492099952,
702,0.0003843177692,702,-0.00048591831,702,0.004898746498,
701,0.0003999151813,701,-0.0004770234227,701,0.004916051403,
700,0.0003883336612,700,-0.0004917102633,700,0.004939666949,
699,0.000448576553,699,-0.0005066551385,699,0.004995595664,
698,0.0003583837533,698,-0.0004987432039,698,0.00502034137,
697,0.0003876341216,697,-0.0004948647693,697,0.004971243907,
696,0.0003615703608,696,-0.0004623360583,696,0.00496804947,
695,0.0003743429552,695,-0.0005076893722,695,0.004971452989,
694,0.0004070922732,694,-0.0004585607385,694,0.005042889155,
693,0.0004102015228,693,-0.0004540612863,693,0.005062452052,
692,0.0003346532758,692,-0.0005232542753,692,0.004984676372,
691,0.0004034907615,691,-0.0004290291399,691,0.005068894941,
690,0.0004160573008,690,-0.0004562851682,690,0.005116903223,
689,0.0003743170528,689,-0.0004988466389,689,0.005057449918,
688,0.0003288762819,688,-0.0004473896406,688,0.005086363759,
687,0.00032449828,687,-0.0004821948824,687,0.005077589769,
686,0.0003467256029,686,-0.0004893314326,686,0.005107736215,
685,0.0004125075357,685,-0.0005096544046,685,0.005174269434,
684,0.0004128443834,684,-0.0004878834588,684,0.005168715958,
683,0.0003274255723,683,-0.0005284768995,683,0.005103283562,
682,0.0003769078758,682,-0.0004938304774,682,0.005168742035,
681,0.0003836959659,681,-0.0004785748606,681,0.005221713334,
680,0.0003498085134,680,-0.0004964678665,680,0.005184381269,
679,0.0003794987279,679,-0.0004532855237,679,0.005244009197,
678,0.0004405436921,678,-0.0003929265076,678,0.00533197308,
677,0.0003770633484,677,-0.0004167711304,677,0.005305086728,
676,0.000387245469,676,-0.0004772302636,676,0.005344027653,
675,0.0003495753335,675,-0.0004647150345,675,0.005345023703,
674,0.0003497048747,674,-0.0004669905757,674,0.005335772876,
673,0.0003699644876,673,-0.000464249606,673,0.005298693199,
672,0.0004394294519,672,-0.0003594073351,672,0.005408055149,
671,0.0003850173089,671,-0.0004122195533,671,0.005394006614,
670,0.0003978942405,670,-0.000424167345,670,0.005428001285,
669,0.0004291683726,669,-0.0003940644674,669,0.005424803589,
668,0.0003826596076,668,-0.0004125298874,668,0.005448106211,
667,0.0004100719525,667,-0.000425150065,667,0.005472406279,
666,0.0003861832083,666,-0.0003844434978,666,0.005457752384,
665,0.0004424871004,665,-0.0003986679658,665,0.005499276333,
664,0.0004349466763,664,-0.0004302187299,664,0.005526122171,
663,0.0004438345495,663,-0.0004061162181,663,0.005521901418,
662,0.0003939041635,662,-0.0004112368042,662,0.005544160493,
661,0.0003988269891,661,-0.0003838228004,661,0.005587344524,
660,0.0004767705104,660,-0.0003823227307,660,0.005607377738,
659,0.000380768266,659,-0.0004409247776,659,0.005566944834,
658,0.0004198662064,658,-0.0003736843355,658,0.005625314545,
657,0.0003920645977,657,-0.0003800984996,657,0.005617499817,
656,0.0004416320007,656,-0.0003873918904,656,0.005639501382,
655,0.0004214986111,655,-0.0003699082299,655,0.005629955791,
654,0.000358124671,654,-0.0004280981666,654,0.005588786677,
653,0.0003784105938,653,-0.0004311497032,653,0.005638242699,
652,0.0004264735617,652,-0.0003955644788,652,0.005687337369,
651,0.0004108751891,651,-0.0004012541904,651,0.00566737866,
650,0.0003846545878,650,-0.0003732187906,650,0.005707480013,
649,0.0004241933639,649,-0.0003308001906,649,0.005718732253,
648,0.0004210062907,648,-0.0003724428825,648,0.005764530506,
647,0.0004152281617,647,-0.0003703220573,647,0.005759363063,
646,0.0004595377832,646,-0.0003668045392,646,0.005814426579,
645,0.0004273804661,645,-0.0003579589247,645,0.00583966542,
644,0.0004924489767,644,-0.0003444573667,644,0.005827019457,
643,0.0004683484149,643,-0.0003543896019,643,0.005849346519,
642,0.0003993969876,642,-0.0004061679356,642,0.005844755098,
641,0.0004079473147,641,-0.0003901850723,641,0.005856981501,
640,0.0004374342388,640,-0.0003771500778,640,0.005927303806,
639,0.00049172336,639,-0.0003184359521,639,0.005953598768,
638,0.0004200735129,638,-0.0003718738735,638,0.005914891604,
637,0.000432588713,637,-0.0003823227307,637,0.005874561146,
636,0.0004291424411,636,-0.0004048231349,636,0.005936698057,
635,0.0004184411082,635,-0.000391219568,635,0.005956957582,
634,0.000454666093,634,-0.0003646319383,634,0.005989369471,
633,0.0004189852334,633,-0.0003854780225,633,0.005978976376,
632,0.0004494575842,632,-0.0003657182388,632,0.006043648347,
631,0.0004356722056,631,-0.0003156940511,631,0.006056799553,
630,0.0003867273044,630,-0.000401616242,630,0.006048163399,
629,0.0004477991606,629,-0.0003699082299,629,0.00608711876,
628,0.0004464258091,628,-0.0003887884959,628,0.006078114267,
627,0.000428313273,627,-0.0003588383261,627,0.006125919987,
626,0.000468814862,626,-0.0003794777731,626,0.006127074827,
625,0.000491541985,625,-0.0003639077477,625,0.006145767868,
624,0.0004604447458,624,-0.0004027541727,624,0.006165459752,
623,0.0003827632463,623,-0.0003581141063,623,0.00617892947,
622,0.0004567132273,622,-0.0003765293513,622,0.006196994334,
621,0.0004676746612,621,-0.000390443689,621,0.006241372786,
620,0.0004617663217,620,-0.0003646836849,620,0.006239534356,
619,0.0004585271527,619,-0.0003347835736,619,0.00629245257,
618,0.0004298938729,618,-0.0003852711234,618,0.006297127809,
617,0.0004444564402,617,-0.0003791156923,617,0.006324574351,
616,0.0004219909315,616,-0.0003550103575,616,0.006332139019,
615,0.0004155131755,615,-0.0003509754024,615,0.006341279484,
614,0.0004695145471,614,-0.0003810813068,614,0.006391846109,
613,0.0004076363984,613,-0.00036204551,613,0.00641041901,
612,0.000468244747,612,-0.000335093966,612,0.006481356453,
611,0.0004769519146,611,-0.0002851179743,611,0.006437452976,
610,0.0004937447957,610,-0.0002919473336,610,0.006473500282,
609,0.0004380042956,609,-0.0003287309082,609,0.00640671514,
608,0.0005059252144,608,-0.0003109861864,608,0.006541031413,
607,0.0005278248573,607,-0.0002826345444,607,0.006566706579,
606,0.000490634935,606,-0.0003297138319,606,0.006575221661,
605,0.0005222267355,605,-0.0002973797091,605,0.006632754114,
604,0.0005113157677,604,-0.0003050883824,604,0.006637196057,
603,0.0005227191723,603,-0.000283307163,603,0.006613908801,
602,0.0005315829185,602,-0.0003422846785,602,0.006626340561,
601,0.0005194018013,601,-0.0002761154901,601,0.006662377622,
600,0.0004984095576,600,-0.000333335076,600,0.006642216817,
599,0.0005893572816,599,-0.0002703206846,599,0.006660169456,
598,0.0004918529303,598,-0.0003663389944,598,0.006690215319,
597,0.0005003273254,597,-0.0003407844633,597,0.006731331814,
596,0.0004520747752,596,-0.000370115129,596,0.006718975492,
595,0.0005322308862,595,-0.000308502902,595,0.006793880835,
594,0.0005366887199,594,-0.0003556828306,594,0.006712718401,
593,0.0005061584525,593,-0.0003584762162,593,0.006772478111,
592,0.0005093202344,592,-0.0003245922562,592,0.006865958683,
591,0.0004931487492,591,-0.0003797364188,591,0.006782153621,
590,0.0004807095102,590,-0.0003313692578,590,0.006866853219,
589,0.0005391768645,589,-0.0003045192861,589,0.006822463591,
588,0.0004681151768,588,-0.0003830468922,588,0.006849575322,
587,0.0005241964827,587,-0.0002973279625,587,0.006938101724,
586,0.000523885421,586,-0.0003270237066,586,0.006931341719,
585,0.0004968546564,585,-0.0003287826257,585,0.006964510307,
584,0.0005431682803,584,-0.0003104171192,584,0.006975926459,
583,0.0005605598562,583,-0.0003588900436,583,0.006977583747,
582,0.0005363259115,582,-0.0003488027432,582,0.006990157999,
581,0.0005396174965,581,-0.0003832538205,581,0.007052902132,
580,0.0005533543299,580,-0.0002740459167,580,0.007056427654,
579,0.0005511771305,579,-0.0002835141204,579,0.007118839771,
578,0.0005267104134,578,-0.0003086063953,578,0.007060190197,
577,0.0005813995376,577,-0.0002900330583,577,0.007105919532,
576,0.0004635802761,576,-0.0003349905019,576,0.007100920193,
575,0.0005142443697,575,-0.0003174529993,575,0.007139680441,
574,0.000549544231,574,-0.0002986213949,574,0.00713704899,
573,0.000531323778,573,-0.0002646810026,573,0.007177470718,
572,0.0005897979136,572,-0.0002557815751,572,0.007216185331,
571,0.000625752029,571,-0.0002708380634,571,0.0072786198,
570,0.0005962004652,570,-0.0002442430705,570,0.00728430599,
569,0.0005364554818,569,-0.0002877048682,569,0.00766142644,
568,0.0005106160534,568,-0.0002438808733,568,0.007714913692,
567,0.000501260336,567,-0.0002552641672,567,0.007755336352,
566,0.0005247666268,566,-0.0002361711231,566,0.007713490631,
565,0.0005208531511,565,-0.0002030538308,565,0.007732383907,
564,0.0005162658636,564,-0.000235343221,564,0.007750803605,
563,0.0005354447057,563,-0.0001655868546,563,0.007769645657,
562,0.0005908866297,562,-0.0001618606766,562,0.007863262668,
561,0.0004773665278,561,-0.000236378095,561,0.007814923301,
560,0.0005956561654,560,-0.0001794562268,560,0.007886169478,
559,0.0005589269567,559,-0.0001769721857,559,0.007944613695,
558,0.0005794555182,558,-0.0001507337147,558,0.007948304527,
557,0.0005794555182,557,-0.0001700375142,557,0.007938127965,
556,0.0005931936321,556,-0.0001381055627,556,0.008077244274,
555,0.0006025772309,555,-0.0001763511827,555,0.008028933778,
554,0.0005791703588,554,-0.0001070511717,554,0.008043859154,
553,0.0006201526267,553,-0.0001035832902,553,0.00808370579,
552,0.0006584165967,552,-0.0001021340213,552,0.008106808178,
551,0.0006282147369,551,-8.898683882E-5,551,0.008116461337,
550,0.0006791832275,550,-7.071470463E-5,550,0.008215481415,
549,0.000596615253,549,-7.382050535E-5,549,0.008154546842,
548,0.0006388953771,548,-4.452158464E-5,548,0.008223606274,
547,0.0006064136978,547,-6.719477824E-5,547,0.008236269467,
546,0.0006084874622,546,-0.000122216341,546,0.008295368403,
545,0.0006731942412,545,-3.147619645E-5,545,0.008283019997,
544,0.0007002619677,544,-4.545338015E-5,544,0.008387726732,
543,0.0007060698117,543,-4.938761776E-5,543,0.008377619088,
542,0.0006709905574,542,-5.011234316E-5,542,0.008416968398,
541,0.0007113592001,541,-6.471444067E-6,541,0.008482743055,
540,0.0006817759131,540,-3.225271939E-5,540,0.008489500731,
539,0.0007087144768,539,-2.174366819E-5,539,0.008513865992,
538,0.0007172968471,538,4.607726623E-6,538,0.008620766923,
537,0.00082478486,537,7.13217014E-5,537,0.008618706837,
536,0.0007778965519,536,2.780241994E-5,536,0.008713273332,
535,0.0007660715492,535,2.226250399E-5,535,0.008692303672,
534,0.0007653973298,534,8.620112567E-6,534,0.008750698529,
533,0.0007726582699,533,6.626858521E-6,533,0.008798349649,
532,0.0008071492775,532,4.141774752E-6,532,0.00881406758,
531,0.0009246207774,531,1.969966797E-5,531,0.008898979053,
530,0.0009313655319,530,3.958144953E-5,530,0.008965884335,
529,0.0009644682286,529,7.815677236E-5,529,0.009060526267,
528,0.000984289567,528,9.141297051E-5,528,0.009126134217,
527,0.001041008392,527,0.0001181855259,527,0.009201588109,
526,0.0009467750788,526,4.522514064E-5,526,0.009244000539,
525,0.001012570225,525,8.967825124E-5,525,0.009336877614,
524,0.001056317938,524,5.198213694E-5,524,0.009342141449,
523,0.001099343528,523,5.073946159E-5,523,0.009434563108,
522,0.001189975883,522,0.000135663664,522,0.009538091719,
521,0.001223877072,521,0.0001178489183,521,0.009591995738,
520,0.001207523164,520,0.0001238561381,520,0.009714012034,
519,0.001305707614,519,0.00014835193,519,0.009835506789,
518,0.001380568021,518,0.0001920645736,518,0.009917466901,
517,0.001420353423,517,0.0001830005785,517,0.009990859777,
516,0.001481648767,516,0.0001679806446,516,0.01012318954,
515,0.001543446328,515,0.0002206044737,515,0.0102664791,
514,0.001577816787,514,0.0001919350907,514,0.01034438517,
513,0.001650047721,513,0.0002194390108,513,0.01047430281,
512,0.001716754981,512,0.0002324405359,512,0.01059980411,
511,0.001773725613,511,0.0001859528275,511,0.01069286559,
510,0.001899180585,510,0.00022407496,510,0.01082137506,
509,0.001997781685,509,0.0002556733089,509,0.01102306601,
508,0.00207593455,508,0.0002389414294,508,0.0111304,
507,0.002146167215,507,0.0002841914538,507,0.01132447552,
506,0.002217660192,506,0.000213637657,506,0.01149811782,
505,0.002363518346,505,0.0002562431328,505,0.01170259621,
504,0.002483416349,504,0.0003017021809,504,0.01188341342,
503,0.00262009236,503,0.0002758508199,503,0.01203417778,
502,0.002791538835,502,0.0003600418277,502,0.0122858528,
501,0.002870486118,501,0.0002681319602,501,0.01251169667,
500,0.003018258139,500,0.0003436427214,500,0.01275994256,
499,0.003115861909,499,0.0003153278958,499,0.01292951964,
498,0.003292616457,498,0.0003128151293,498,0.01321464311,
497,0.003495380515,497,0.0003920645977,497,0.01347100828,
496,0.003599643242,496,0.0003558189201,496,0.01371918991,
495,0.003830206115,495,0.0003722702968,495,0.01404434722,
494,0.003943064716,494,0.0003862609447,494,0.01430826541,
493,0.00419649668,493,0.0003835663956,493,0.01463761274,
492,0.004401722923,492,0.000431707711,492,0.0149454549,
491,0.004600270651,491,0.0004248152545,491,0.01520346012,
490,0.004795270506,490,0.0004493280139,490,0.01550078485,
489,0.004968861118,489,0.0004924230743,489,0.01589289866,
488,0.005188625306,488,0.0004771592212,488,0.01620294712,
487,0.005351365544,487,0.0004876287712,487,0.01652443223,
486,0.005537238903,486,0.0005084908917,486,0.01685543731,
485,0.005737066735,485,0.0004599523963,485,0.01713079214,
484,0.005966562778,484,0.0005608449574,484,0.0175442975,
483,0.006169477012,483,0.0005472374614,483,0.01788649336,
482,0.006418037694,482,0.0006380139384,482,0.01825590245,
481,0.006644030102,481,0.0005898497766,481,0.01863764971,
480,0.006841317751,480,0.000623548578,480,0.0189187061,
479,0.00710755121,479,0.0007458453183,479,0.01932920888,
478,0.007335482165,478,0.0007101924275,478,0.01971604675,
477,0.007554340642,477,0.0007885030354,477,0.02004521154,
476,0.007816899568,476,0.0008809381397,476,0.02054315992,
475,0.008145790547,475,0.0009688527207,475,0.02099022083,
474,0.008312809281,474,0.0009669847786,474,0.02130219154,
473,0.008591062389,473,0.001142658875,473,0.02174714953,
472,0.008884130046,472,0.001232910901,472,0.02218684368,
471,0.009270020761,471,0.001463596942,471,0.02266303636,
470,0.009459351189,470,0.001631832914,470,0.02308173664,
469,0.009739531204,469,0.001811857335,469,0.02354057506,
468,0.01010827255,468,0.002076818841,468,0.02413098328,
467,0.0103389509,467,0.002346965251,467,0.02455143072,
466,0.01069222856,466,0.002708385931,466,0.02500691637,
465,0.01098666526,465,0.003108457429,465,0.02557941712,
464,0.01134055108,464,0.003566469532,464,0.02603411302,
463,0.01159831136,463,0.004096141085,463,0.02654291503,
462,0.01201379206,462,0.004756954499,462,0.02715709619,
461,0.01223643217,461,0.005401790608,461,0.02755773067,
460,0.01257878728,460,0.006237433758,460,0.02810162492,
459,0.0128780799,459,0.0070853699,459,0.02855302766,
458,0.01323228236,458,0.008166865446,458,0.02907763235,
457,0.0134440409,457,0.009209308773,457,0.02949738503,
456,0.01369789708,456,0.01040902082,456,0.02993950807,
455,0.01395756844,455,0.01171602588,455,0.03040928952,
454,0.01423994359,454,0.01317149401,454,0.03081718832,
453,0.01454838645,453,0.01481116563,453,0.03128435835,
452,0.01470527425,452,0.01646073349,452,0.03165008873,
451,0.01494765189,451,0.01830668747,451,0.03208142146,
450,0.01516499277,450,0.02021594904,450,0.03242266551,
449,0.01535363961,449,0.02224645577,449,0.03278519586,
448,0.0155653609,448,0.02439341135,448,0.03320407867,
447,0.01584408619,447,0.0266935993,447,0.03363315389,
446,0.01602875814,446,0.02898724377,446,0.03393371403,
445,0.01617693901,445,0.03136075661,445,0.03430510312,
444,0.01638922282,444,0.03391946852,444,0.0346862264,
443,0.01656113751,443,0.03637009859,443,0.03502730653,
442,0.01677032933,442,0.03889711201,442,0.03541302308,
441,0.01702010632,441,0.04138415679,441,0.03575793654,
440,0.01722391695,440,0.04400009662,440,0.03612171486,
439,0.0173653923,439,0.04658494517,439,0.03653166443,
438,0.01756521314,438,0.04907314852,438,0.03684869409,
437,0.01775773801,437,0.0515936166,437,0.03723710775,
436,0.01798496209,436,0.05413750932,436,0.0375610888,
435,0.01808148064,435,0.05657732859,435,0.03793406487,
434,0.01831200719,434,0.05904638395,434,0.0382454209,
433,0.01846434548,433,0.06143943593,433,0.03861510754,
432,0.01857494004,432,0.06389737874,432,0.03876548633,
431,0.01868885756,431,0.06621314585,431,0.039071206,
430,0.0188345965,430,0.06864333153,430,0.03931252658,
429,0.01889480464,429,0.07099854201,429,0.03950544074,
428,0.01890907995,428,0.07339084148,428,0.03965198249,
427,0.01899087802,427,0.07571983337,427,0.03976529837,
426,0.0189701356,426,0.07829425484,426,0.03991752118,
425,0.01898665912,425,0.08068463951,425,0.04000998661,
424,0.01902427711,424,0.08324450254,424,0.04002914578,
423,0.01895453408,423,0.08587793261,423,0.04013901204,
422,0.01907793805,422,0.08842863888,422,0.04015792161,
421,0.01893546991,421,0.09101369232,421,0.04019676521,
420,0.01890164427,420,0.09355972707,420,0.0402373448,
419,0.01892781816,419,0.09621381015,419,0.04021195695,
418,0.01886236109,418,0.0987226963,418,0.04026483744,
417,0.01875685714,417,0.1012283787,417,0.0402228348,
416,0.01872658543,416,0.1035472453,416,0.04016902298,
415,0.01867937297,415,0.1058860347,415,0.04015891626,
414,0.01859566197,414,0.108022809,414,0.04014573991,
413,0.01851215586,413,0.1100502759,413,0.04012194648,
412,0.01842774823,412,0.1119579971,412,0.04009588435,
411,0.01836846955,411,0.1136609316,411,0.04006221518,
410,0.01825239323,410,0.115092285,410,0.0399348326,
409,0.01812325791,409,0.1164376587,409,0.0398253575,
408,0.01810261235,408,0.1176916212,408,0.03987053037,
407,0.01789412834,407,0.1186084151,407,0.03964245692,
406,0.01784700528,406,0.1195140928,406,0.03953716904,
405,0.0175293386,405,0.1201769337,405,0.03928931803,
404,0.01743935421,404,0.1209941134,404,0.03909924626,
403,0.01723638736,403,0.1215582788,403,0.03890999407,
402,0.01707489416,402,0.1220137626,402,0.03859176859,
401,0.0168079976,401,0.1224854067,401,0.03827363253,
400,0.01662713662,400,0.122972168,400,0.0381488353,
399,0.01633933373,399,0.1233381405,399,0.03773913532,
398,0.01621554978,398,0.1237233132,398,0.03749787062,
397,0.01593387499,397,0.1240334958,397,0.03717709333,
396,0.01560968813,396,0.1242753565,396,0.03678842634,
395,0.01533253491,395,0.1245662421,395,0.03649520129,
394,0.01511443965,394,0.124808155,394,0.03610255569,
393,0.01486811228,393,0.1250480562,393,0.03587288037,
392,0.01456027199,392,0.1251114756,392,0.03549242765,
391,0.01453213859,391,0.1254081875,391,0.03528432921,
390,0.01418554038,390,0.1254217625,390,0.03498347849,
389,0.01399202645,389,0.1255392879,389,0.0346461609,
388,0.01372474618,388,0.1255622059,388,0.03444550186,
387,0.01349090133,387,0.1256921142,387,0.03402460739,
386,0.0132232355,386,0.1257785261,386,0.03379006684,
385,0.01300558355,385,0.1260683835,385,0.03355481476,
384,0.01287879981,384,0.1264392883,384,0.0332213752,
383,0.0126559902,383,0.1267885417,383,0.03291066736,
382,0.01232475881,382,0.1273247451,382,0.03259150311,
381,0.01209986396,381,0.1279291064,381,0.0323536098,
380,0.01190224942,380,0.1287128329,380,0.03204717115,
379,0.01161460858,379,0.1295652241,379,0.03167066351,
378,0.01133343019,378,0.1304620504,378,0.0314004086,
377,0.0112997666,377,0.1317899823,377,0.0312191546,
376,0.01105150301,376,0.1330182701,376,0.03096811101,
375,0.01079374924,375,0.1343162656,375,0.03061670437,
374,0.01047464833,374,0.1357337087,374,0.0302868709,
373,0.01030327007,373,0.1373096704,373,0.0301159285,
372,0.01018447988,372,0.1388922632,372,0.02999006957,
371,0.01004452817,371,0.1403946579,371,0.02975664474,
370,0.009791024961,370,0.1417511553,370,0.02964333259,
369,0.009708638303,369,0.1431205869,369,0.02941563539,
368,0.009541822597,368,0.1440940201,368,0.02919467352,
367,0.009370600805,367,0.1449017525,367,0.02907583304,
366,0.009235274047,366,0.145283103,366,0.02913232893,
365,0.009160184301,365,0.1451807171,365,0.02883401886,
364,0.009048710577,364,0.1446711421,364,0.02866030298,
363,0.00883596763,363,0.1435039788,363,0.02846830338,
362,0.008792194538,362,0.1418159157,362,0.02835231461,
361,0.008749457076,361,0.139700681,361,0.02827901207,
360,0.00866230391,360,0.1368206292,360,0.02808737569,
359,0.008459831588,359,0.1334172636,359,0.02782231942,
358,0.00832618773,358,0.1299232841,358,0.02774118818,
357,0.008383108303,357,0.1260473728,357,0.02761435881,
356,0.008145025,356,0.1219948009,356,0.02741636895,
355,0.008139090613,355,0.118104063,355,0.0274303481,
354,0.008023633622,354,0.1140953079,354,0.02731598727,
353,0.00810430292,353,0.1103673652,353,0.02710099518,
352,0.007954473607,352,0.1066459343,352,0.02693155222,
351,0.007917327806,351,0.1030479297,351,0.02696173824,
350,0.007911290973,350,0.09967027605,350,0.02681547776,
349,0.006319295149,349,0.09515496343,349,0.02414846979,
348,0.00826705806,348,0.09287115186,348,0.02597428299,
347,0.007523418404,347,0.08971637487,347,0.02494972199,
346,0.007167970296,346,0.08587168902,346,0.02501119487,
345,0.007681740448,345,0.08297618479,345,0.02486465685,
344,0.008076531813,344,0.08004847169,344,0.02505668625,
343,0.007533269003,343,0.07617621869,343,0.02477834746,
342,0.007300284691,342,0.07240623236,342,0.0248354096,
341,0.007052744273,341,0.06960196793,341,0.02475222945,
340,0.007880317047,340,0.06667171419,340,0.02482628264,
339,0.007265616208,339,0.06319653243,339,0.02460873686,
338,0.007399145514,338,0.06097917259,338,0.02504171431,
337,0.007107577287,337,0.05857552588,337,0.02505271137,
336,0.007385638077,336,0.05667727441,336,0.02499380894,
335,0.007098394446,335,0.05454055592,335,0.02438144572,
334,0.007129522972,334,0.05324692652,334,0.02436225116,
333,0.006782022305,333,0.05253403634,333,0.02441854775,
332,0.007313947659,332,0.05248492956,332,0.02465939336,
331,0.007121365517,331,0.05260576308,331,0.02454622649,
330,0.007305944804,330,0.05314724147,330,0.02468761615,
329,0.006704831962,329,0.05385150015,329,0.02477415279,
328,0.006800664589,328,0.05505248532,328,0.02454866469,
327,0.00674074376,327,0.05701408535,327,0.02437065728,
326,0.006728728767,326,0.05891511962,326,0.024373997,
325,0.006447567604,325,0.06105361879,325,0.02430141903,
324,0.006702702492,324,0.06328594685,324,0.02461032569,
323,0.006763354409,323,0.06489325315,323,0.02438388206,
322,0.006123110652,322,0.0657390058,322,0.024269199,
321,0.005792861804,321,0.06632670015,321,0.02412211709,
320,0.005775154568,320,0.066413261,320,0.02396605909,
319,0.006197151728,319,0.06664901972,319,0.02435910329,
318,0.006143326405,318,0.06585478783,318,0.02429093421,
317,0.005853491835,317,0.06464718282,317,0.0240442995,
316,0.006187620573,316,0.06347228587,316,0.02446926385,
315,0.005798108876,315,0.06183538213,315,0.02398892678,
314,0.005668637808,314,0.06024129316,314,0.02401540801,
313,0.005435052328,313,0.05920756608,313,0.02360769734,
312,0.005245031323,312,0.05769242346,312,0.02363404632,
311,0.00541526312,311,0.05661286414,311,0.02384937927,
310,0.005377914291,310,0.05577506125,310,0.02396425232,
309,0.005674931686,309,0.05447015166,309,0.0239942614,
308,0.005182285327,308,0.05333727226,308,0.02390817925,
307,0.004968730267,307,0.05118155479,307,0.02317289822,
306,0.004903353751,306,0.05011937395,306,0.0236223191,
305,0.00477841543,305,0.04814273119,305,0.02346474677,
304,0.005064730532,304,0.04666958749,304,0.02397120185,
303,0.005112817511,303,0.04443421587,303,0.02323166095,
302,0.004757975228,302,0.04243372381,302,0.0237246938,
301,0.004816340748,301,0.04026071727,301,0.02359460481,
300,0.004474137444,300,0.03827058151,300,0.02305053547,
299,0.004862672184,299,0.03655495122,299,0.02387361042,
298,0.004389589652,298,0.03424602374,298,0.02333850414,
297,0.004633575678,297,0.03247465938,297,0.02380737662,
296,0.004752898123,296,0.03087354824,296,0.02385640703,
295,0.005207959097,295,0.02961035445,295,0.02416612208,
294,0.004351021722,294,0.02759676054,294,0.02370041609,
293,0.004922963213,293,0.0262510255,293,0.02431135625,
292,0.004368305206,292,0.02450064942,292,0.02379835211,
291,0.00472178217,291,0.02323695831,291,0.02450859174,
290,0.004756090697,290,0.02225228585,290,0.0247611627,
289,0.005123975687,289,0.02106569894,289,0.0252376087,
288,0.005254568066,288,0.02027808502,288,0.02542599104,
287,0.005536688026,287,0.01911396906,287,0.02607487515,
286,0.005490782671,286,0.01806045882,286,0.02638081275,
285,0.005957849789,285,0.0170103889,285,0.02724790387,
284,0.006606444251,284,0.01620356552,284,0.02803764306,
283,0.007394195534,283,0.01569727995,283,0.02958979271,
282,0.008137534373,282,0.01529126614,282,0.03059295565,
281,0.009280043654,281,0.01521246787,281,0.03265041113,
280,0.01023843791,280,0.01483647712,280,0.03441058472,
279,0.011890091,279,0.01493875682,279,0.03704319522,
278,0.01347458642,278,0.01468326431,278,0.03991638497,
277,0.01597061194,277,0.01522898301,277,0.04361595213,
276,0.01860476658,276,0.01532816328,276,0.04782729223,
275,0.02184059098,275,0.01615770161,275,0.05253532156,
274,0.02496238798,274,0.01631116681,274,0.05744410306,
273,0.02849693969,273,0.01692115702,273,0.06270192564,
272,0.03212729841,272,0.01703012176,272,0.06832692772,
271,0.03557825089,271,0.01763335988,271,0.07370498031,
270,0.03932788596,270,0.01858031563,270,0.07982486486,
269,0.04289262369,269,0.02020247094,269,0.08518249542,
268,0.04636008665,268,0.02204090171,268,0.09060468525,
267,0.04970775172,267,0.0255134441,267,0.09552495927,
266,0.05284288526,266,0.02976277098,266,0.100163281,
265,0.055448208,265,0.03640342504,265,0.1042571813,
264,0.05825733766,264,0.04636518285,264,0.1085051224,
263,0.0603941977,263,0.06111529469,263,0.1123050079,
262,0.06270422786,262,0.08200914413,262,0.1162095368,
261,0.06488961726,261,0.1099066883,261,0.1197982952,
260,0.06708282977,260,0.1441334486,260,0.1233004853,
259,0.06866170466,259,0.1856439114,259,0.1264060885,
258,0.07001683861,258,0.2303876877,258,0.1294451356,
257,0.07124586403,257,0.2685504556,257,0.1319402456,
256,0.07269640267,256,0.2883084118,256,0.1342007816,
255,0.07345576584,255,0.289334923,255,0.1355481297,
254,0.07442227006,254,0.2834652364,254,0.1364793479,
253,0.07487013191,253,0.2799602449,253,0.1373718828,
252,0.0753101632,252,0.2805309594,252,0.1377324313,
251,0.07531287521,251,0.2837684751,251,0.1380023062,
250,0.07500061393,250,0.2891922891,250,0.1376684904,
249,0.07446239889,249,0.2922613621,249,0.1370940506,
248,0.07364823669,248,0.2897005677,248,0.1357184947,
247,0.07223068923,247,0.2795704603,247,0.133786723,
246,0.0711324811,246,0.2650854886,246,0.1319581717,
245,0.06979049742,245,0.2480864972,245,0.1296284497,
244,0.06863512099,244,0.2326459587,244,0.127307713,
243,0.066406928,243,0.218317911,243,0.1245715171,
242,0.06527200341,242,0.2080463767,242,0.122068651,
241,0.06356241554,241,0.1992744207,241,0.1195313781,
240,0.0620864369,240,0.1920507848,240,0.1170729026,
239,0.06086149439,239,0.1849110126,239,0.1151923761,
238,0.06039434671,238,0.1785638332,238,0.1136945263,
237,0.06024381891,237,0.1726983041,237,0.1128552631,
236,0.06166233495,236,0.1695120335,236,0.1134697199,
235,0.06405200064,235,0.1695915461,235,0.1155868024,
234,0.06857954711,234,0.1739829481,234,0.1195573211,
233,0.07494016737,233,0.1820459962,233,0.1258718073,
232,0.08292796463,232,0.1931748241,232,0.1337361783,
231,0.09217883646,231,0.2062390149,231,0.1430630386,
230,0.1017584279,230,0.2197528481,230,0.1529103965,
229,0.1116248146,229,0.2321830839,229,0.1628309339,
228,0.1207725704,228,0.244060263,228,0.1730891466,
227,0.1302551627,227,0.2554822564,227,0.1830153763,
226,0.1404092759,226,0.2668346465,226,0.1940414608,
225,0.1504207104,225,0.2772801816,225,0.20458287,
224,0.1599364132,224,0.2866229713,224,0.2148731798,
223,0.168363288,223,0.295163691,223,0.2240988612,
222,0.1759053767,222,0.3024416864,222,0.2331220806,
221,0.1835895628,221,0.3097474277,221,0.2419512719,
220,0.1906482428,220,0.3166788816,220,0.2513116896,
219,0.1982184947,219,0.3232587576,219,0.2615408301,
218,0.2070602477,218,0.329272598,218,0.2742570937,
217,0.2183676362,217,0.3358007371,217,0.2908005416,
216,0.2315948755,216,0.3411115408,216,0.3112858236,
215,0.2479875237,215,0.3480047584,215,0.3369526267,
214,0.2663003206,214,0.3556842804,214,0.3663308322,
213,0.2851386368,213,0.3670294881,213,0.3961983919,
212,0.3004409671,212,0.381646812,212,0.422157824,
211,0.3100134134,211,0.4009779096,211,0.4399236441,
210,0.3133439422,210,0.4251710474,210,0.4488514364,
209,0.3116807938,209,0.4551143348,209,0.4499121606,
208,0.305262208,208,0.4896868169,208,0.4451217055,
207,0.2959688008,207,0.5287600756,207,0.4359253347,
206,0.2839040458,206,0.5697597265,206,0.4228129089,
205,0.269977957,205,0.6091253757,205,0.4062892795,
204,0.2549325824,204,0.641857028,204,0.388600111,
203,0.2393209487,203,0.664849937,203,0.3702145517,
202,0.2242976129,202,0.6783733368,202,0.3517999053,
201,0.2100765258,201,0.6866800189,201,0.3348328173,
200,0.1971244961,200,0.6938093305,200,0.3193737566,

